,ID,cityID,typeID,cost,lat,lng
0,1,104,101,300,25.05603020034,121.54421981156
1,2,235,101,150,25.00261600039,121.4722600113
2,3,241,101,145,25.0662050195,121.49877100046
3,4,106,101,745,25.02663450912,121.55180301432
4,5,110,101,64,25.03951001948,121.57673801587
5,6,105,101,53,25.05789550847,121.55753800246
6,7,108,101,25,25.04363301623,121.50677100228
7,8,110,101,140,25.04227400897,121.5685550036
8,9,105,101,303,25.05850900164,121.55192900443
9,10,235,101,85,24.98973851316,121.51039731825
10,11,115,101,60,25.05404460556,121.59760291645
11,12,235,101,90,24.98453001224,121.50598730824
12,13,103,101,340,25.05802301112,121.51902200072
13,14,220,101,340,25.01351300417,121.4664973067
14,15,241,101,13,25.06074861866,121.46101570536
15,17,111,101,277,25.10365061366,121.52195641443
16,18,106,101,24,25.03065371683,121.55550750574
17,19,236,101,160,24.98719891429,121.46638200738
18,20,231,101,101,24.96359870881,121.5423947057
19,21,106,101,200,25.02896991323,121.52836500015
20,22,106,101,503,25.03828361896,121.55484560537
21,23,105,101,88,25.0569792101,121.56335211109
22,24,106,101,257,25.0406097098,121.5546087185
23,25,106,101,754,25.0309730143,121.52881400764
24,26,116,101,60,25.00088501871,121.5512620027
25,27,111,101,300,25.11185700531,121.53136700391
26,28,106,101,100,25.0261234197,121.55204651834
27,29,114,101,120,25.10008601397,121.58698000059
28,30,236,101,45,24.98614030697,121.45023031061
29,31,235,101,443,24.99775701062,121.48785700304
30,32,112,101,200,25.11076201936,121.51548401761
31,33,104,101,646,25.04860500476,121.53611280322
32,34,106,101,65,25.04975101819,121.51746900036
33,35,110,101,250,25.0287024088,121.5769572135
34,36,108,101,77,25.0265170146,121.49477201852
35,37,100,101,118,25.09107500255,121.55983450905
36,38,100,101,45,25.01174300071,121.53594201424
37,39,111,101,200,25.08900901187,121.52422200696
38,40,236,101,80,24.96516900765,121.42022121042
39,41,115,101,324,25.0527490134,121.61776201156
40,42,110,101,965,25.03349291212,121.56410101922
41,43,220,101,135,25.027874408,121.46019490692
42,45,114,101,120,25.07994640107,121.57857510909
43,46,106,101,160,25.02039500727,121.53353001125
44,47,235,101,275,24.99773490728,121.48559700158
45,48,105,101,40,25.04980101295,121.57719000165
46,49,220,101,25,25.01688801176,121.47334500572
47,50,110,101,500,25.03948120964,121.5658476075
48,51,115,101,63,25.05188700995,121.5936350184
49,52,105,101,400,25.05816401918,121.5448950027
50,53,106,101,150,25.01928850734,121.53290360611
51,54,234,101,500,25.01018801154,121.51055001727
52,55,104,101,500,25.06379601278,121.52139600473
53,56,104,101,315,25.05051810401,121.52693390297
54,57,220,101,390,25.01826060092,121.46056770197
55,58,233,101,340,24.8831925404091,121.556257115522
56,59,244,101,80,25.08404021154,121.37595700816
57,60,220,101,423,25.0053192950216,121.459780942844
58,61,110,101,200,25.02699990227,121.56673601187
59,62,116,101,92,24.98311090873,121.56212900981
60,63,234,101,119,25.01497500844,121.51537500105
61,64,207,101,80,25.17535941761,121.68715230091
62,65,106,101,110,25.03674520708,121.55454961768
63,66,242,101,55,25.04578000662,121.45474500524
64,67,220,101,102,25.0323640013221,121.471510423854
65,68,100,101,433,25.04304101979,121.51337101958
66,69,104,101,330,25.05325200891,121.52346731226
67,70,220,101,248,25.01649750111,121.47086670954
68,71,106,101,352,25.04074921457,121.55323030357
69,72,110,101,147,25.03630100662,121.56744330341
70,73,241,101,60,25.05391661978,121.49115951868
71,74,100,101,194,25.04470791333,121.51679181436
72,75,208,101,775,25.25882171949,121.6276018077
73,76,241,101,118,25.07095501966,121.49542700354
74,77,104,101,83,25.06493151206,121.52358650582
75,78,242,101,200,25.04504021212,121.45643561852
76,79,115,101,990,25.05729741685,121.61647031049
77,80,106,101,805,25.02938991207,121.53051600358
78,81,104,101,130,25.08248791894,121.55809351401
79,82,242,101,65,25.03871510841,121.43229321522
80,83,104,101,130,25.07740401803,121.54860100569
81,84,100,101,526,25.04413031375,121.52939950886
82,85,104,101,100,25.05549641586,121.54438550082
83,86,106,101,959,25.04314170319,121.55280171009
84,87,114,101,705,25.08050400053,121.59021001824
85,88,241,101,128,25.05846100002,121.48287800824
86,89,106,101,105,25.04369481373,121.54556061346
87,90,106,101,341,25.04368761663,121.54604901265
88,91,220,101,286,25.02308901709,121.46875900761
89,92,110,101,350,25.03948121135,121.56584760774
90,93,237,101,140,24.94736701056,121.373199006
91,94,106,101,410,25.03462700954,121.55853301667
92,95,106,101,262,25.04023860085,121.54797120121
93,96,110,101,129,25.04196201431,121.56338100389
94,97,111,101,290,25.09019801576,121.52521700791
95,98,241,101,30,25.06635770241,121.49858641456
96,99,114,101,263,25.08163831679,121.57245171647
97,100,241,101,200,25.0822727096,121.49622870767
98,101,231,101,47,24.97143301026,121.53580201708
99,102,251,101,300,25.17279401914,121.43961000729
100,103,242,101,20,25.03305220422,121.45019070018
101,104,241,101,303,25.07238990584,121.47121300587
102,105,220,101,222,25.00278580871,121.45603801381
103,106,231,101,195,24.97973650011,121.54003340225
104,107,235,101,165,24.99367890695,121.5172163025
105,108,106,101,177,25.03654830247,121.54693530681
106,109,103,101,113,25.07211101881,121.51808901509
107,110,115,101,600,25.05980330659,121.61588461126
108,111,100,101,183,25.02999981688,121.51660021875
109,112,105,101,340,25.05734930332,121.56639271782
110,113,104,101,100,25.04984820916,121.52300430919
111,114,106,101,350,25.02363000044,121.54366800235
112,115,106,101,78,25.02970600377,121.52928701217
113,116,114,101,134,25.0778755608476,121.57649774086
114,117,105,101,150,25.06780260288,121.56809310538
115,118,108,101,280,25.045345208,121.50539031154
116,119,242,101,53,25.04649740601,121.45489751814
117,120,110,101,320,25.03810231377,121.58413561695
118,121,106,101,403,25.02683000323,121.54180170227
119,122,112,101,175,25.11628700082,121.51656490589
120,123,114,101,207,25.06790801023,121.61487521273
121,124,105,101,220,25.04282551422,121.563306113
122,125,220,101,192,25.03046191693,121.46897190389
123,126,110,101,100,25.0442200184,121.57035900248
124,127,108,101,100,25.04534520467,121.50539030029
125,128,100,101,313,25.04093040258,121.53063080599
126,129,105,101,600,25.04478360651,121.55076501512
127,130,103,101,55,25.06383051803,121.53379281554
128,131,220,101,300,25.03069970874,121.46762421861
129,132,233,101,160,24.8635942101,121.55140390046
130,133,104,101,208,25.05212940079,121.540673101
131,134,108,101,169,25.04335351037,121.50727520466
132,135,105,101,94,25.05036200202,121.57335191556
133,136,114,101,47,25.08101591794,121.57230780752
134,137,103,101,135,25.05487641513,121.54199801561
135,138,244,101,250,25.07898080175,121.38814081945
136,139,224,101,123,25.10859400778,121.80434290505
137,140,241,101,500,25.07219860363,121.49308030791
138,141,106,101,303,25.04352280079,121.55748961821
139,142,221,101,110,25.06546500417,121.65702900793
140,143,112,101,365,25.13791800594,121.50302901518
141,144,248,101,230,25.08387860415,121.43811341079
142,145,114,101,186,25.08090801688,121.57166101299
143,146,112,101,370,25.1337910093,121.50020700307
144,147,114,101,232,25.07135000667,121.57746121108
145,148,110,101,483,25.04485591752,121.56837511779
146,149,106,101,453,25.04135900818,121.54414501715
147,150,105,101,178,25.0500877167529,121.546349303352
148,151,104,101,280,25.05129190226,121.52049600208
149,152,220,101,500,25.01729371741,121.46975800146
150,153,100,101,35,25.04361301832,121.5229961024
151,154,100,101,200,25.02873900544,121.52085500254
152,155,105,101,460,25.06112991087,121.56426400354
153,156,114,101,215,25.08174171769,121.57316590268
154,157,220,101,246,25.0203250112,121.4691048151
155,159,106,101,450,25.03722490417,121.54739651422
156,160,106,101,620,25.04032351152,121.54916570936
157,161,104,101,242,25.07797871444,121.54775880845
158,162,234,101,49,25.01322410133,121.51529370605
159,163,115,101,100,25.05495090385,121.61422501641
160,164,235,101,273,25.00615931703,121.4745588198
161,165,220,101,80,25.02990160187,121.47237001433
162,166,236,101,110,24.9866658178,121.44997220722
163,167,247,101,44,25.0823958061,121.45974700776
164,169,242,101,20,25.05226491708,121.45804801515
165,170,106,101,573,25.03412121142,121.5527126095
166,171,105,101,90,25.05208670537,121.55725911911
167,172,234,101,360,24.99685480502,121.52000630357
168,173,231,101,28,24.97595600427,121.54291700593
169,174,100,101,555,25.04323501774,121.52871100206
170,175,242,101,50,25.02863401667,121.41221400616
171,176,237,101,85,24.93734821008,121.37412611746
172,177,220,101,82,25.01686400137,121.47372401807
173,179,104,101,350,25.0831059032,121.54817201828
174,181,114,101,957,25.07270190772,121.57494041437
175,182,247,101,500,25.08338170317,121.46276780728
176,183,106,101,400,25.02548641635,121.54946810191
177,184,110,101,655,25.03332491809,121.55937520853
178,185,106,101,55,25.03317361915,121.54554061277
179,186,110,101,252,25.04408101897,121.56788901438
180,187,105,101,586,25.05744501092,121.54683901832
181,188,220,101,176,25.02192191383,121.46655900794
182,189,110,101,290,25.04161000192,121.57751100686
183,190,104,101,50,25.06084320974,121.53154730242
184,191,111,101,358,25.10382801674,121.52245201525
185,192,220,101,170,25.03197201772,121.4766080144
186,193,104,101,385,25.05566290322,121.54268000171
187,194,106,101,215,25.04279810412,121.55365180681
188,195,100,101,103,25.04792390831,121.51708100661
189,196,243,101,310,25.05643200616,121.43165800542
190,197,100,101,130,25.04612600193,121.51229601764
191,198,111,101,40,25.08916691026,121.52483900395
192,199,100,101,242,25.07101201654,121.51874000971
193,200,251,101,80,25.1778430037,121.44442330653
194,201,110,101,365,25.02975840632,121.56191861588
195,202,115,101,455,25.05759350556,121.61670790564
196,203,234,101,65,24.99745621212,121.52252800115
197,204,104,101,55,25.0511950016,121.53264301717
198,205,220,101,210,25.01628700625,121.45432901472
199,206,231,101,199,24.97090550595,121.53710041167
200,207,106,101,483,25.04372760413,121.544786803
201,208,114,101,210,25.0777114014,121.57773571399
202,209,100,101,100,25.04417500867,121.53153700061
203,210,242,101,462,25.04532371266,121.45305450599
204,211,100,101,28,25.04439730146,121.52595671651
205,212,111,101,370,25.10918641988,121.53291520292
206,213,106,101,679,25.03834501823,121.55128100941
207,214,103,101,242,25.06575450887,121.51733510333
208,215,234,101,197,24.99868561637,121.51650281983
209,216,104,101,396,25.04635000394,121.53199601221
210,217,104,101,659,25.04943670519,121.53447720733
211,219,106,101,75,25.03009801012,121.55534270158
212,221,244,101,230,25.06981551411,121.36700991993
213,222,220,101,100,25.02548341622,121.46253460397
214,223,234,101,825,25.00741690891,121.51353920277
215,224,106,101,260,25.03002840831,121.55090030626
216,225,111,101,55,25.0869330092,121.52632701837
217,226,111,101,219,25.09465201789,121.52540880395
218,227,247,101,92,25.08096700822,121.47857200935
219,228,103,101,561,25.06313051386,121.51667791058
220,229,242,101,237,25.03332901262,121.43229901096
221,230,244,101,278,25.07367250458,121.36144890021
222,231,115,101,300,25.05387301461,121.59257291574
223,232,105,101,135,25.04849481469,121.5624309059
224,233,104,101,260,25.05484090001,121.53298291557
225,234,237,101,600,24.84518341356,121.44948640953
226,236,100,101,111,25.03519901404,121.50784901107
227,237,103,101,308,25.05231201016,121.51986001054
228,238,104,101,250,25.05111241324,121.51839931981
229,239,114,101,1200,25.0796106265934,121.571704286577
230,240,100,101,225,25.03048901673,121.52061281852
231,241,100,101,93,25.04350310278,121.53180540633
232,242,106,101,437,25.02326200969,121.52808901841
233,243,220,101,900,24.99629441544,121.45707221384
234,244,100,101,182,25.04159170331,121.5266590099
235,245,220,101,665,25.01147661673,121.46419140865
236,246,104,101,302,25.0824879155,121.55809351628
237,247,235,101,66,24.98200841896,121.50713391632
238,248,106,101,854,25.02944261032,121.52214670963
239,249,108,101,95,25.01887001261,121.49678391114
240,250,244,101,333,25.07325060225,121.36587121701
241,251,110,101,118,25.03635801814,121.55991601856
242,252,115,101,635,25.05217550925,121.60683091932
243,253,251,101,100,25.1760832142,121.44676220084
244,254,105,101,170,25.05745800313,121.56622920018
245,255,112,101,273,25.14199700929,121.49911601802
246,256,110,101,676,25.04173200389,121.56591500811
247,257,115,101,350,25.05219810562,121.60707271469
248,258,100,101,205,25.04638690705,121.51583971962
249,259,110,101,437,25.04158590595,121.56534160403
250,260,106,101,165,25.01888650339,121.53284611755
251,261,106,101,150,25.02500711254,121.54149681717
252,262,251,101,316,25.17832670778,121.4466292031
253,263,110,101,996,25.03624801184,121.56868901558
254,264,114,101,190,25.08535401036,121.57305301195
255,265,106,101,192,25.03108470313,121.54942300123
256,266,104,101,180,25.06020401898,121.53817460199
257,267,105,101,50,25.05060140366,121.57593270543
258,268,115,101,217,25.04459201765,121.58195200997
259,269,104,101,325,25.05185621935,121.52688640019
260,270,105,101,100,25.04769600526,121.55782701274
261,271,116,101,180,24.98944701877,121.54155001843
262,272,236,101,80,24.97203901324,121.4432290009
263,273,100,101,199,25.04413031207,121.52939950848
264,274,104,101,600,25.05146400683,121.52640001502
265,275,111,101,200,25.1190427096,121.53447781356
266,276,100,101,80,25.02402611929,121.52935630775
267,277,106,101,606,25.02164210859,121.54244040861
268,278,106,101,135,25.01577930914,121.53260791185
269,279,104,101,275,25.05075531132,121.54209551706
270,280,220,101,45,25.02944401252,121.46265100653
271,281,236,101,110,24.98387751332,121.45108820892
272,282,221,101,50,25.064648632519,121.651921156801
273,283,231,101,290,24.97563031772,121.53437531128
274,285,111,101,186,25.11874810271,121.52846641198
275,286,114,101,150,25.0688675043,121.61393280174
276,287,106,101,372,25.03001761649,121.55209551654
277,288,244,101,222,25.08404020526,121.37595701796
278,289,106,101,615,25.04439260879,121.54712351777
279,290,115,101,654,25.05219811214,121.60707270008
280,291,106,101,1084,25.03979000865,121.55565211269
281,292,247,101,89,25.08593100178,121.46833300323
282,293,110,101,615,25.03566591549,121.56607451918
283,294,111,101,587,25.1153674182075,121.532935544348
284,295,114,101,69,25.0697720099,121.61395400087
285,296,220,101,69,25.01674701758,121.47500400351
286,297,108,101,231,25.04269071143,121.50466440453
287,298,104,101,400,25.05180140336,121.53083351715
288,299,106,101,385,25.03386501613,121.55453771871
289,300,100,101,38,25.02848220581,121.50596200345
290,301,116,101,297,24.99944990443,121.5396960195
291,302,114,101,151,25.07415000168,121.60559900973
292,303,220,101,81,24.9994660131,121.46174601246
293,304,105,101,100,25.05940791273,121.54652310194
294,305,106,101,261,25.03124720532,121.55337761643
295,306,220,101,160,24.98727800306,121.45295400169
296,307,100,101,399,25.0462216018,121.51813900911
297,308,208,101,124,25.21914501561,121.63675001616
298,309,105,101,300,25.05786901441,121.55512800025
299,310,242,101,104,25.04502011562,121.45225040639
300,311,105,101,40,25.05529581582,121.55412641941
301,312,111,101,74,25.10214810626,121.52306131023
302,313,110,101,80,25.04306911672,121.57757741464
303,314,241,101,173,25.06304191882,121.48581601316
304,315,106,101,600,25.04344920358,121.5475749181
305,316,110,101,110,25.03889970236,121.56673590258
306,317,104,101,377,25.05226461121,121.53275231531
307,318,252,101,320,25.24629901511,121.46406701341
308,319,106,101,55,25.0423709123,121.55150100908
309,320,110,101,292,25.04084611746,121.5653964032
310,321,110,101,318,25.03465851285,121.55397990702
311,322,249,101,200,25.14770700977,121.4002960085
312,323,106,101,519,25.04098671382,121.5460965158
313,324,116,101,150,25.00119691308,121.55399691584
314,325,105,101,500,25.04848700218,121.56356301039
315,326,105,101,808,25.04981711635,121.54477090663
316,327,252,101,350,25.24629900037,121.46406700141
317,328,234,101,100,25.00834140756,121.52002700583
318,329,220,101,230,25.02057641387,121.45463780117
319,330,234,101,328,25.00026871504,121.51891560224
320,331,244,101,65,25.06779480637,121.37904510016
321,332,112,101,110,25.12110310525,121.51982701245
322,333,112,101,118,25.12110311967,121.51982701453
323,334,104,101,643,25.0648186408597,121.535804623098
324,335,231,101,30,24.97828201122,121.53948221706
325,336,110,101,129,25.03935691386,121.56585601423
326,337,106,101,280,25.02325560693,121.54266330401
327,338,110,101,719,25.04071901999,121.57462700153
328,339,106,101,300,25.04366751797,121.54793581463
329,340,110,101,65,25.0312604184,121.56020310579
330,341,242,101,138,25.0360718138,121.44851520333
331,342,220,101,210,25.02325071758,121.46401061551
332,343,220,101,128,25.02526401374,121.46991400598
333,344,220,101,115,25.00619870538,121.45582810698
334,345,234,101,85,25.01355300257,121.51551260554
335,346,110,101,416,25.03889971505,121.56673591656
336,347,251,101,100,25.16895440721,121.44313660383
337,348,241,101,138,25.06271290966,121.50298600655
338,349,241,101,50,25.06642500851,121.47978600581
339,350,235,101,50,24.99787900912,121.51016001697
340,351,220,101,100,24.99946601192,121.46174600087
341,352,104,101,330,25.05999691081,121.53344880439
342,353,103,101,320,25.04936180793,121.51682990444
343,354,106,101,225,25.03129261798,121.55391640662
344,355,241,101,60,25.05595541354,121.47209070171
345,356,104,101,144,25.06008600189,121.54306971278
346,357,112,101,120,25.11446160462,121.52248611697
347,358,235,101,292,24.9957140738073,121.513354831856
348,359,106,101,248,25.04284251097,121.54246310321
349,360,104,101,674,25.0523650065,121.54024600033
350,361,111,101,250,25.08916691874,121.52483901615
351,363,234,101,100,25.00832530671,121.51701661302
352,364,231,101,220,24.96138400568,121.53911401002
353,365,104,101,55,25.06413620147,121.52400641244
354,366,105,101,134,25.06080490691,121.56010760367
355,367,221,101,175,25.06454371366,121.63319491055
356,368,114,101,248,25.07244721469,121.60733311774
357,369,114,101,100,25.08026141133,121.59111810631
358,370,114,101,75,25.10934701622,121.52758401175
359,371,114,101,70,25.08190601108,121.56759701486
360,372,220,101,210,25.02362770896,121.46879990093
361,373,106,101,310,25.04076321856,121.55237840395
362,374,224,101,40,25.10890061325,121.84545370573
363,375,220,101,266,25.01023890121,121.46140900308
364,376,108,101,601,25.04201260546,121.50757871926
365,377,112,101,60,25.13322500786,121.49877001374
366,378,110,101,95,25.03230720028,121.55975771589
367,379,241,101,43,25.06614201639,121.49855400269
368,380,112,101,75,25.13243110569,121.50301700192
369,381,108,101,100,25.04148001674,121.50497100966
370,382,100,101,1067,25.03720131071,121.53250760346
371,383,251,101,288,25.16783031817,121.44746051014
372,384,241,101,647,25.08795760235,121.48655220716
373,385,220,101,563,25.02682501811,121.47671200626
374,386,110,101,20,25.02617091543,121.56722671068
375,387,112,101,50,25.1343325038,121.50246471844
376,388,251,101,260,25.1859540028,121.44519400519
377,389,116,101,195,25.0019690182,121.53926501551
378,390,234,101,205,24.99987701312,121.51737601003
379,391,220,101,55,25.01462501637,121.45644600046
380,392,220,101,218,25.02406500237,121.46949570068
381,393,104,101,223,25.05145601368,121.52704100257
382,394,220,101,34,25.01689901103,121.47342300474
383,396,104,101,575,25.06354771491,121.53164270465
384,397,235,101,250,24.99570071666,121.5132757042
385,398,251,101,60,25.17787900195,121.45065410365
386,399,104,101,633,25.06430100689,121.53403360298
387,400,104,101,456,24.99784100606,121.51823600159
388,401,241,101,100,25.06699900956,121.49811501798
389,402,106,101,210,25.02204100085,121.5423649154
390,403,112,101,100,25.13858070222,121.48951730984
391,404,111,101,268,25.111857009,121.53136701172
392,405,104,101,225,25.05237400794,121.52070610284
393,406,110,101,371,25.03898341974,121.56727301408
394,407,235,101,95,24.98663640792,121.51206160706
395,408,100,101,100,25.09107501765,121.55983451781
396,409,110,101,734,25.03661861024,121.56725721129
397,410,104,101,99,25.05459450875,121.52193501748
